Frequency [Hz],Magnitude [dB],Phase [deg],Quality
40.0,-22.925098783020452,88.76739877977784,1
41.6,-22.75648753529084,88.99125289614292,1
43.264,-22.412556118780355,88.5593926793259,1
44.99456000000001,-22.00679335847903,88.15784108414337,1
46.79434240000001,-21.63457941856847,83.30902304291862,1
48.66611609600002,-21.207600088719307,87.67968738234953,1
50.61276073984002,-20.87530817907447,88.79781328272225,1
52.637271169433625,-20.495750142030904,88.02613705648389,1
54.742762016210975,-20.263533049730153,88.1536433020985,1
56.93247249685942,-19.755194587033074,88.37818339205842,1
59.2097713967338,-19.61885723906707,88.21720950646538,1
61.57816225260316,-19.199643087668726,90.56238203917246,1
64.04128874270728,-18.99687028796998,87.86366832143702,1
66.60294029241557,-18.515600922554857,84.46009229245507,1
69.26705790411219,-18.213701791921107,88.04966400878115,1
72.03774022027669,-17.716891088525163,87.90947488053916,1
74.91924982908776,-17.494089092267945,87.85977566750347,1
77.91601982225127,-17.27590557446267,87.49350358267458,1
81.03266061514132,-16.972661618130804,87.37739884284474,1
84.27396703974698,-16.507160000083562,88.11925376421509,1
87.64492572133686,-16.258719213474354,87.14879046697826,1
91.15072275019034,-15.894127501667983,87.37603681010906,1
94.79675166019796,-15.501314690791832,87.05730662211471,1
98.58862172660588,-15.22146126065718,87.25726732770815,1
102.53216659567012,-14.821589303021838,87.28705118580176,1
106.63345325949693,-14.57373791379716,86.85489959095813,1
110.89879138987682,-14.124999148521647,86.60276982886039,1
115.3347430454719,-13.763583790872982,86.88756794088022,1
119.94813276729077,-13.380325719820853,86.3489525798228,1
124.74605807798241,-13.024841470977897,86.42129066713665,1
129.7359004011017,-12.758191676065007,86.24161769842664,1
134.9253364171458,-12.3482465853546,86.27626948554143,1
140.32234987383163,-12.044078070444204,85.79141931057555,1
145.9352438687849,-11.796305798795524,85.77339494631217,1
151.7726536235363,-11.574361309064248,85.65119012598049,1
157.84355976847777,-11.069938476585829,85.19431595260146,1
164.1573021592169,-10.718003044824856,85.11877133130753,1
170.7235942455856,-10.469924248203966,85.00177852926811,1
177.55253801540903,-10.141537514478637,84.63429811652301,1
184.6546395360254,-9.763885190861124,84.4230556542584,1
192.04082511746643,-9.496143660492104,84.1174327244417,1
199.72245812216508,-9.063760144996685,84.15169009732948,1
207.71135644705168,-8.73455931865939,83.78364687559818,1
216.01981070493375,-8.52772339232154,83.61248025437078,1
224.6606031331311,-8.208657146329562,83.45049672532205,1
233.64702725845635,-7.884072288515256,82.93600719448784,1
242.9929083487946,-7.4970435276363645,82.56146927325688,1
252.7126246827464,-7.094646438904696,82.36126411572357,1
262.8211296700563,-6.827063546167926,81.98752494282755,1
273.33397485685856,-6.530378388748129,81.95608518628315,1
284.2673338511329,-6.163728023372241,81.42086205126748,1
295.6380272051782,-5.767879430680412,81.30349005357665,1
307.4635482933854,-5.339626170548326,81.200389174561,1
319.7620902251208,-5.063386773011375,80.66198060183841,1
332.55257383412567,-4.861313329909782,80.19757574609426,1
345.8546767874907,-4.389173269958145,80.02035185862644,1
359.6888638589903,-4.0921420180172,79.77245575435322,1
374.0764184133499,-3.856178479565884,79.02442623075669,1
389.0394751498839,-3.3761171337435094,79.12683235264387,1
404.6010541558793,-3.1311045996109685,78.35046562792535,1
420.7850963221145,-2.847647873259917,78.06504085030583,1
437.6165001749991,-2.459048529449364,77.60423801977646,1
455.1211601819991,-2.1269843014382066,76.93956238406824,1
473.3260065892791,-1.8690822157134712,76.5709405671719,1
492.25904685285025,-1.552647462607146,75.9912076386054,1
511.9494087269643,-1.3167430231450286,75.188387351099,1
532.4273850760429,-0.9556036588187019,74.87311536008482,1
553.7244804790846,-0.5387860977665845,74.60054126257604,1
575.873459698248,-0.1589472424371612,74.23532577318906,1
598.908398086178,0.15290534160435026,73.58362374852119,1
622.8647340096251,0.48448580488448906,73.22117785796979,1
647.77932337001,0.7930837683660571,72.48439743019858,1
673.6904963048105,1.0894760506776313,71.87063439699796,1
700.638116157003,1.3545472838072585,71.18468520432766,1
728.6636408032831,1.62473809195833,70.27368810525921,1
757.8101864354145,1.870147776375854,69.43744018833524,1
788.1225938928311,2.2196417888888145,68.9739164270092,1
819.6474976485443,2.6293875799882005,68.55558322241131,1
852.4333975544862,2.8201468292455703,67.4068346918699,1
886.5307334566656,3.1565741304160895,66.73365851218345,1
921.9919627949323,3.5098554329530733,66.28460996937908,1
958.8716413067297,3.741237266604618,65.06274535164702,1
997.2265069589989,4.09023833717492,64.44865198348938,1
1037.1155672373588,4.401731319915581,63.69762228605115,1
1078.6001899268533,4.62136589471445,62.64983273404028,1
1121.7441975239276,4.991723991272711,61.84209691302814,1
1166.6139654248848,5.317879763261387,61.18967519222241,1
1213.2785240418802,5.620177981830292,60.27132349562703,1
1261.8096650035554,5.928781895178654,59.14273146872705,1
1312.2820516036977,6.237652931325925,58.25209612748722,1
1364.7733336678457,6.531780353784963,57.09041775622222,1
1419.3642670145596,6.792972160111164,55.94653449816914,1
1476.138837695142,7.063138159506974,54.79912343151712,1
1535.1843912029478,7.438650376303165,53.98621005168381,1
1596.5917668510658,7.655103965926533,52.71929955611519,1
1660.4554375251084,8.001871907901235,51.65392304895683,1
1726.8736550261128,8.312175293047584,50.45194734821091,1
1795.9486012271575,8.572725984913605,49.05605796525268,1
1867.786545276244,8.887569434316328,47.81579276395695,1
1942.4980070872937,9.182550081182622,46.60013317731728,1
2020.1979273707855,9.504392802008129,45.28042586581284,1
2101.005844465617,9.837436258815618,42.29631665026896,1
2185.046078244242,10.152756408542626,42.87418115723864,1
2272.4479213740115,10.459590429937384,41.408947845237435,1
2363.345838228972,10.791700507002894,38.3234027486934,1
2457.879671758131,11.070518792051564,38.93537604690478,1
2556.194858628456,11.455769275030935,35.77740473581123,1
2658.4426529735942,11.7594150241768,34.830001571753314,1
2764.780359092538,12.107175550075292,33.178946445232015,1
2875.3715734562397,12.477776989631376,30.889772156819866,1
2990.3864363944895,12.811174365267023,29.78457300942803,1
3110.001893850269,13.23242166641033,27.04876277058588,1
3234.4019696042797,13.595277438388253,25.636161744298747,1
3363.7780483884508,14.054441002329154,23.082925485215878,1
3498.329170323989,14.464279304828896,20.888084179458417,1
3638.2623371369486,14.916469446234213,18.519656439987443,1
3783.7928306224267,15.449844886872693,15.590087581455329,1
3935.144543847324,15.921822547525661,12.934851787204806,1
4092.550325601217,16.50866969909993,9.428987618018539,1
4256.252338625266,17.12514518362684,5.759911689957775,1
4426.502432170277,17.74116205162299,1.5516707539123331,1
4603.562529457088,18.43885906122871,-3.49326108546407,1
4787.705030635372,19.135455135373114,-9.340881683844856,1
4979.213231860787,19.84884836666832,-16.67415388847232,1
5178.381761135219,20.457086702393575,-25.06611336248625,1
5385.517031580628,21.235631601159273,-36.11537323129066,1
5600.937712843854,21.282626701326596,-48.42574719250794,1
5824.975221357608,21.372594464273686,-61.57681440023799,1
6057.974230211912,20.654543653354242,-75.70490613650588,1
6300.293199420389,19.813840930738838,-87.05299205100522,1
6552.304927397205,18.48019442103767,-98.28051837851794,1
6814.397124493093,17.22658794689827,-105.1844909428564,1
7086.973009472817,15.718108230783468,-113.59124828644724,1
7370.45192985173,14.340469142724872,-116.48722014571099,1
7665.2700070457995,12.95641503602123,-121.64511544593489,1
7971.880807327631,11.616309029572552,-123.32983673632702,1
8290.756039620737,10.339251405306296,-123.01160516916042,1
8622.386281205567,9.247328752659753,-123.49124390969273,1
8967.28173245379,8.438163531958383,-120.85324593180468,1
9325.973001751941,8.087289537047207,-116.64536137923409,1
9699.011921822019,8.310837489215544,-115.96004237756247,1
10086.9723986949,8.685330192730536,-120.32127675079701,1
10490.451294642695,8.74295981419157,-127.47592645092033,1
