Frequency [Hz],Magnitude [dB],Phase [deg],Quality
40.0,-28.3628781120931,87.74984422302958,2
41.6,-27.938461398365583,88.83622253386359,1
43.264,-27.61127206057858,88.6590650501326,2
44.99456000000001,-27.133182443380008,89.21904835899892,2
46.79434240000001,-26.868180824478117,88.95809733809926,2
48.66611609600002,-26.7382982180048,89.14461995789748,1
50.61276073984002,-26.230118787113057,87.20317174429977,2
52.637271169433625,-25.946314589491077,89.70612663358429,2
54.742762016210975,-25.528032278098255,87.59487495959323,2
56.93247249685942,-25.055985600413504,85.96005594808702,2
59.2097713967338,-25.160753029009513,86.97624931840059,2
61.57816225260316,-24.627752748121843,87.11505299819783,2
64.04128874270728,-24.316868840165036,87.27868514909976,1
66.60294029241557,-23.853473254295817,89.57545507071617,2
69.26705790411219,-23.590324436081076,86.72118999820091,1
72.03774022027669,-23.228988710372047,87.90131295069699,1
74.91924982908776,-22.880194133862034,88.07300682128991,1
77.91601982225127,-22.531043131785168,87.28025253778922,1
81.03266061514132,-22.294517198193258,86.77192875857173,1
84.27396703974698,-22.02410767130134,86.82528084682929,1
87.64492572133686,-21.57428646951198,86.88482500379197,1
91.15072275019034,-21.279817435251392,86.45908725972058,1
94.79675166019796,-20.877335695698545,87.14800900495058,1
98.58862172660588,-20.651566549491218,86.18769046052614,1
102.53216659567012,-20.299503441835327,86.0369006290058,1
106.63345325949693,-20.074769404502597,86.19289457438175,1
110.89879138987682,-19.532105796001886,86.01156484834041,1
115.3347430454719,-19.09429640337986,85.56194045778528,1
119.94813276729077,-18.818070262730078,85.56493075874772,1
124.74605807798241,-18.477287973041523,85.80702911553828,1
129.7359004011017,-18.216956917729956,85.0675854240218,1
134.9253364171458,-18.019342949504292,85.50764067053001,1
140.32234987383163,-17.58608183211429,84.74152966765118,1
145.9352438687849,-17.345965125724863,84.49987530158006,1
151.7726536235363,-17.0271875807006,84.32571002493628,1
157.84355976847777,-16.56451696314523,83.8423626556474,1
164.1573021592169,-16.141266070532225,84.2249766871455,1
170.7235942455856,-15.976988731669282,83.85900031178741,1
177.55253801540903,-15.60837175811452,83.86436103286626,1
184.6546395360254,-15.262032629186072,83.25623961399742,1
192.04082511746643,-14.979610569937718,83.26746960201677,1
199.72245812216508,-14.579409151977012,82.70058004254227,1
207.71135644705168,-14.294346536377876,82.23082188457721,1
216.01981070493375,-14.023304207305662,82.00883397064999,1
224.6606031331311,-13.77964159494722,81.71068536818382,1
233.64702725845635,-13.377851443002788,81.83089667621437,1
242.9929083487946,-13.067281947296975,81.28684083096954,1
252.7126246827464,-12.813428341533807,81.034960174208,1
262.8211296700563,-12.363952969595756,81.0739211289093,1
273.33397485685856,-12.040653821530345,80.60742901297574,1
284.2673338511329,-11.767092656722753,80.12395661272511,1
295.6380272051782,-11.40387440411519,80.15081792742006,1
307.4635482933854,-10.934304154920714,79.5208541756167,1
319.7620902251208,-10.66560091453275,79.36486721653682,1
332.55257383412567,-10.430570179520224,78.72634769336146,1
345.8546767874907,-10.02547678576659,79.2027939939428,1
359.6888638589903,-9.719362088943816,78.18768784701992,1
374.0764184133499,-9.456917249381108,77.84126714020594,1
389.0394751498839,-9.005901618636203,76.98934288288694,1
404.6010541558793,-8.774045281660163,77.01265418617363,1
420.7850963221145,-8.514788407630046,76.60536814237051,1
437.6165001749991,-8.115320790562345,76.45362225431793,1
455.1211601819991,-7.796888025481976,75.98678009415183,1
473.3260065892791,-7.53459249492948,75.43047080430193,1
492.25904685285025,-7.257753456766273,74.88961450237406,1
511.9494087269643,-6.990642233731229,74.14562632226325,1
532.4273850760429,-6.65858258878882,73.71274701887027,1
553.7244804790846,-6.246404437385004,73.43938156515188,1
575.873459698248,-5.874182740801043,73.29701123047892,1
598.908398086178,-5.546432370599786,72.7410970081042,1
622.8647340096251,-5.226317696607902,72.23701961488501,1
647.77932337001,-4.9184370345190835,71.56909114270321,1
673.6904963048105,-4.6387001979595235,71.03561308788426,1
700.638116157003,-4.3213852367513885,70.23628811646981,1
728.6636408032831,-4.1131353938195,69.43747588872843,1
757.8101864354145,-3.849094241251676,68.72738280755237,1
788.1225938928311,-3.4978468560566927,68.16564653164257,1
819.6474976485443,-3.0971738603204098,67.84698752361015,1
852.4333975544862,-2.8986144483348295,66.67712847688733,1
886.5307334566656,-2.6031283786408568,66.01196451370122,1
921.9919627949323,-2.2377126877842533,65.45814712396154,1
958.8716413067297,-2.0028722275997297,64.52927048360492,1
997.2265069589989,-1.6486074136041988,63.82037949615964,1
1037.1155672373588,-1.3427092390352329,63.00320266590921,1
1078.6001899268533,-1.121477027551137,61.99659483555281,1
1121.7441975239276,-0.779813424997885,61.39445936180347,1
1166.6139654248848,-0.4359350900915413,60.502395855636905,1
1213.2785240418802,-0.14500110688131923,59.72816479126834,1
1261.8096650035554,0.1521378021831389,58.73791652238742,1
1312.2820516036977,0.44514770878373455,57.82136315477226,1
1364.7733336678457,0.7330655820715065,56.74159382882861,1
1419.3642670145596,0.9701717648455841,55.661662415831785,1
1476.138837695142,1.2806920080177004,54.46796300735505,1
1535.1843912029478,1.6161341229931223,53.58324896794611,1
1596.5917668510658,1.8211022835907322,52.37310429953312,1
1660.4554375251084,2.1510460956550723,51.370788033196675,1
1726.8736550261128,2.4148081598005264,50.03315215751825,1
1795.9486012271575,2.6816957345083483,48.79734422773842,1
1867.786545276244,2.962799365632461,47.689260001629506,1
1942.4980070872937,3.2441824368895285,46.35572178806309,1
2020.1979273707855,3.5760598320275467,45.04379674101513,1
2101.005844465617,3.8690216821700116,42.15025470022576,1
2185.046078244242,4.170986976544852,42.69557561953354,1
2272.4479213740115,4.479089778095051,41.41136022356859,1
2363.345838228972,4.808294964794778,38.18666269094343,1
2457.879671758131,5.033529874009748,38.92259307110385,1
2556.194858628456,5.395592047140858,35.73285597603967,1
2658.4426529735942,5.698975290640295,34.85824580137239,1
2764.780359092538,6.006432384830612,33.322106838529535,1
2875.3715734562397,6.369482391631514,31.02035576620719,1
2990.3864363944895,6.667423634650167,29.94811591147132,1
3110.001893850269,7.071605602396899,27.46290222053551,1
3234.4019696042797,7.379201278195757,26.103090816499304,1
3363.7780483884508,7.785915887825512,23.698124930863766,1
3498.329170323989,8.17741317381068,21.745800545443146,1
3638.2623371369486,8.561826597505805,19.657172722533062,1
3783.7928306224267,9.053524104506751,16.83917134215323,1
3935.144543847324,9.457134938050908,14.640585114859746,1
4092.550325601217,9.96584512667017,11.639177947845752,1
4256.252338625266,10.495015162324608,8.5032598425707,1
4426.502432170277,11.023079187913943,5.0845485477158405,1
4603.562529457088,11.625538791967385,1.1276301606653192,1
4787.705030635372,12.270109628021588,-3.4983660267064263,1
4979.213231860787,12.917885001940032,-8.937843836140615,1
5178.381761135219,13.558878561019421,-15.304819269771684,1
5385.517031580628,14.352495080521015,-23.491517759379207,1
5600.937712843854,14.747526440033242,-32.91225383266926,1
5824.975221357608,15.279418041401243,-44.50612054002648,1
6057.974230211912,15.129493630155642,-57.036993188482825,1
6300.293199420389,14.831432268162017,-69.71163590627216,1
6552.304927397205,13.848509581826086,-82.8837985249987,1
6814.397124493093,12.824591297170718,-92.1232592067209,1
7086.973009472817,11.309156200130921,-102.77720625975263,1
7370.45192985173,9.96916501823318,-106.84511255643183,1
7665.2700070457995,8.454807969311165,-113.22383789837066,1
7971.880807327631,7.025542306496059,-115.41311275546951,1
8290.756039620737,5.675849452787377,-115.09768717865455,1
8622.386281205567,4.493839987081387,-115.2919525374404,1
8967.28173245379,3.719157270008711,-111.72752341768432,1
9325.973001751941,3.5552765391036614,-106.67521746485849,1
9699.011921822019,3.9983379448250336,-105.33577857492645,1
10086.9723986949,4.6864722971947135,-109.63343148197265,1
10490.451294642695,5.0711698904667575,-117.92963345728641,1
10910.069346428403,4.7773065303170155,-127.23024703183899,1
11346.47212028554,3.978693839326837,-135.68804066036938,1
11800.331005096961,2.9050142886980903,-142.86314252949816,1
12272.34424530084,1.7873523371920526,-148.55447723712564,1
12763.238015112873,0.6512399575441937,-153.0512065866651,1
13273.767535717388,-0.4384739311755752,-156.82844302580088,1
13804.718237146084,-1.5035953255698935,-159.9860148201315,1
14356.906966631928,-2.5170558050027623,-162.70712134848864,1
14931.183245297207,-3.531192804900101,-165.04207322280945,1
15528.430575109096,-4.512523497610327,-167.3374772048108,1
16149.567798113461,-5.466052656959231,-169.37048814247132,1
16795.550510038,-6.381588171167963,-171.3650605693822,1
17467.37253043952,-7.339316924788964,-173.22751545061988,1
18166.067431657102,-8.240542641844137,-174.9350240057882,1
18892.710128923387,-9.125935720028115,-176.7977684066581,1
19648.418534080323,-10.016363891844826,-178.41255468144024,1
