Frequency [Hz],Magnitude [dB],Phase [deg],Quality
40.0,-28.458213456406156,-92.68329174190063,2
41.6,-28.074602903728522,-91.7681540618019,2
43.264,-27.908926505801965,-92.21618949712447,2
44.99456000000001,-27.381973827307252,-93.10056369004548,2
46.79434240000001,-26.979740122576732,-90.69774258586163,2
48.66611609600002,-26.696826307675682,-91.21216900120282,2
50.61276073984002,-26.39761943677907,-92.25643008092594,2
52.637271169433625,-25.813045155210233,-91.4389803434948,2
54.742762016210975,-25.38577510585803,-91.70159736987216,2
56.93247249685942,-25.14504303551106,-92.43039491461575,2
59.2097713967338,-25.109036753749116,-91.34832198351941,2
61.57816225260316,-24.69214153123774,-93.25119586591177,2
64.04128874270728,-24.42210778042528,-93.90254223470222,2
66.60294029241557,-23.890833149922475,-93.14220224325248,2
69.26705790411219,-23.55802359586851,-91.87687992761091,2
72.03774022027669,-23.110323483450784,-92.87580234919662,1
74.91924982908776,-22.917183235969905,-91.34058975455443,2
77.91601982225127,-22.641565142842076,-91.75719060129067,2
81.03266061514132,-22.263767098362628,-93.58350498828162,2
84.27396703974698,-21.79767677675713,-93.19937484021793,1
87.64492572133686,-21.646193855442018,-93.47371632939677,1
91.15072275019034,-21.343816895154315,-94.13090446850458,1
94.79675166019796,-20.961193216022792,-93.50760118366662,1
98.58862172660588,-20.558620985258525,-94.36523345420292,1
102.53216659567012,-20.192693896396733,-94.45033652324446,1
106.63345325949693,-20.010535490584484,-94.34869846860974,1
110.89879138987682,-19.49313905665303,-94.68893606085106,1
115.3347430454719,-19.07419328037498,-94.75410031245829,1
119.94813276729077,-18.783246317893642,-94.91575052083134,1
124.74605807798241,-18.396549018112676,-95.0292943261416,1
129.7359004011017,-18.072694419677855,-95.087300075611,1
134.9253364171458,-17.617463233862768,-95.40707354824787,1
140.32234987383163,-17.456109687761263,-95.52348647629985,1
145.9352438687849,-17.104830699393,-96.30934960009648,1
151.7726536235363,-16.895208054906316,-96.48504246002568,1
157.84355976847777,-16.445967433318305,-96.222889216947,1
164.1573021592169,-16.03310293125051,-96.64697036966177,1
170.7235942455856,-15.754516395970688,-97.01333320980427,1
177.55253801540903,-15.335805227741652,-97.18366001663038,1
184.6546395360254,-15.032828955031357,-97.60473407548282,1
192.04082511746643,-14.663555441602927,-97.76430391733004,1
199.72245812216508,-14.290061436154698,-98.43284748666468,1
207.71135644705168,-13.961820294406165,-98.25551281390982,1
216.01981070493375,-13.669029923787384,-99.19044719231678,1
224.6606031331311,-13.284300847090778,-99.67072951250759,1
233.64702725845635,-12.986322120041976,-99.94423658283318,1
242.9929083487946,-12.592523477431042,-100.2509953430108,1
252.7126246827464,-12.241767636322768,-100.93942626979148,1
262.8211296700563,-11.891129341808508,-101.3166384495301,1
273.33397485685856,-11.49280778934634,-101.79359854490886,1
284.2673338511329,-11.151390575051188,-101.77368112462682,1
295.6380272051782,-10.72063801402723,-102.50158080691189,1
307.4635482933854,-10.253317650981796,-102.7538995348734,1
319.7620902251208,-9.907569883041932,-103.38812847035794,1
332.55257383412567,-9.642141852887619,-104.09936899492695,1
345.8546767874907,-9.153335966567111,-104.56322499036546,1
359.6888638589903,-8.789743118461637,-105.39925861213453,1
374.0764184133499,-8.457635131696179,-106.06038851276074,1
389.0394751498839,-7.987078352288822,-106.7489032573663,1
404.6010541558793,-7.604466875372698,-107.44420374006154,1
420.7850963221145,-7.256031492062709,-108.23578688631267,1
437.6165001749991,-6.7578037396042445,-108.74045292127283,1
455.1211601819991,-6.342517715539758,-109.73500862847101,1
473.3260065892791,-5.943036357538019,-110.6485053825464,1
492.25904685285025,-5.539706692262927,-111.64741924877947,1
511.9494087269643,-5.165147491101239,-113.2376798365255,1
532.4273850760429,-4.680637026902533,-114.07854749838259,1
553.7244804790846,-4.115299669133392,-114.66854452299052,1
575.873459698248,-3.628118227672123,-115.9819108470667,1
598.908398086178,-3.1296615660543274,-117.027036110655,1
622.8647340096251,-2.627025146763337,-118.7052446718768,1
647.77932337001,-2.105354134461487,-120.19987979449513,1
673.6904963048105,-1.5718257862355687,-122.10614383237255,1
700.638116157003,-1.0459680461165772,-124.15708795652142,1
728.6636408032831,-0.4970800182049276,-126.56132013782064,1
757.8101864354145,0.04486548739183382,-129.11138036162862,1
788.1225938928311,0.6992725475486805,-131.42116908793594,1
819.6474976485443,1.4159895660740252,-134.17260361667442,1
852.4333975544862,2.028671167960324,-137.99756554080264,1
886.5307334566656,2.69144915722773,-141.76571445451472,1
921.9919627949323,3.397595925788235,-146.16782014262307,1
958.8716413067297,4.098328194414446,-151.58653675818556,1
997.2265069589989,4.774981141685773,-157.49397828703238,1
1037.1155672373588,5.433730946436094,-164.64953023921564,1
1078.6001899268533,5.989511886394431,-172.7005541598644,1
1121.7441975239276,6.393256132100483,178.3612220429588,1
1166.6139654248848,6.6223903983500385,168.574650654391,1
1213.2785240418802,6.603561477145713,158.5161929483648,1
1261.8096650035554,6.35682755976846,148.62051835841032,1
1312.2820516036977,5.907816832919662,139.3460890590938,1
1364.7733336678457,5.293175091383775,131.1141461936034,1
1419.3642670145596,4.520003609344571,123.8410457267571,1
1476.138837695142,3.74899576327936,117.50790784734752,1
1535.1843912029478,3.0188899197426253,111.57792307389711,1
1596.5917668510658,2.167689863905766,107.04328217325576,1
1660.4554375251084,1.4658774791316176,102.60246595598915,1
1726.8736550261128,0.6604422059831632,98.90159483221345,1
1795.9486012271575,-0.09316452733949192,95.66895969982357,1
1867.786545276244,-0.8519885826818976,92.45525501371107,1
1942.4980070872937,-1.5679113749832023,89.48889670710103,1
2020.1979273707855,-2.2072501954314316,87.27384558877115,1
2101.005844465617,-3.0603890346250058,83.09827716617987,1
2185.046078244242,-3.427086720694538,82.80003641525468,1
2272.4479213740115,-4.081738940158369,81.26453903819531,1
2363.345838228972,-4.906399849295761,76.95546851849123,1
2457.879671758131,-5.29937821346536,77.96436477000381,1
2556.194858628456,-6.10133646327425,73.84639186481178,1
2658.4426529735942,-6.5885809051941076,73.23741591388125,1
2764.780359092538,-7.181557091033198,71.76444116509431,1
2875.3715734562397,-7.798565791195642,69.30644806506983,1
2990.3864363944895,-8.322048796794672,69.07834679466752,1
3110.001893850269,-8.934980289637751,66.16001572414405,1
3234.4019696042797,-9.509211919957485,65.81923114696717,1
3363.7780483884508,-10.098571871900454,63.513506414479814,1
3498.329170323989,-10.65902111301884,62.21670394242647,1
3638.2623371369486,-11.192096894096483,61.566363156835564,1
3783.7928306224267,-11.780753448604825,58.9606070093051,1
3935.144543847324,-12.371596989847449,59.336405538182376,1
4092.550325601217,-12.90997905234344,57.39801051465008,1
4256.252338625266,-13.490275942297579,55.378688557905306,1
4426.502432170277,-14.108811332139268,55.31475515616545,1
4603.562529457088,-14.62665587387858,53.92230701725953,1
4787.705030635372,-15.208901932024352,52.19740099942645,1
4979.213231860787,-16.080161743008986,45.850196901179615,1
5178.381761135219,-16.661100373677613,43.76670692177326,1
5385.517031580628,-17.30128527663365,44.98747961615382,1
5600.937712843854,-17.889976473032256,42.115625568754396,1
5824.975221357608,-18.44261786013129,42.53990308163675,1
6057.974230211912,-19.05963100661592,41.00845455037444,1
6300.293199420389,-19.651859044391202,40.511651488514076,1
6552.304927397205,-20.176431254384855,38.76136180604318,1
6814.397124493093,-20.913640055555724,38.955358159184755,1
7086.973009472817,-21.381204730921574,37.460110288211496,1
7370.45192985173,-22.064538514795572,38.01904666351234,1
7665.2700070457995,-22.632129598819166,36.21016284190392,1
7971.880807327631,-23.19295447404391,35.71287881364222,1
8290.756039620737,-23.846821994295187,36.23328618877423,1
8622.386281205567,-24.402808520815455,34.64715036695654,1
8967.28173245379,-24.93725911774385,34.36050783015314,1
9325.973001751941,-25.65104063002985,34.41529147473186,1
9699.011921822019,-26.154139349287888,33.65045705233193,1
10086.9723986949,-26.765619548869577,33.95453574688213,1
10490.451294642695,-27.250846681732025,33.97729451734574,1
10910.069346428403,-27.741533430875545,34.730190271734145,1
11346.47212028554,-28.408616662321375,34.689213547845775,2
11800.331005096961,-28.844102215967403,34.10978848877282,2
12272.34424530084,-29.436133511551652,36.98840285368324,2
12763.238015112873,-29.557496555534183,35.81067623296289,2
13273.767535717388,-30.097285928117678,36.576268595406624,2
13804.718237146084,-30.547339417722526,36.44113234281221,2
14356.906966631928,-30.668788230297448,36.92498142288,2
14931.183245297207,-31.110901901982118,36.52066763084679,2
15528.430575109096,-31.655430476902136,38.10452398529834,2
16149.567798113461,-31.950030339791564,37.264559038399916,2
16795.550510038,-32.27875207018188,36.644561925476296,2
17467.37253043952,-33.011289193469416,38.15175309755206,2
18166.067431657102,-33.195310529325695,40.807460739257465,2
18892.710128923387,-33.48186992489466,41.84491310784963,2
19648.418534080323,-33.4919188058141,42.60352344100784,2
