Frequency [Hz],Magnitude [dB],Phase [deg],Quality
40.0,-20.325543625323803,-90.56926202611396,1
41.6,-20.08012472744113,-90.62323473911601,1
43.264,-19.682268150635274,-91.5262870882317,1
44.99456000000001,-19.29417585317883,-91.4415095584763,1
46.79434240000001,-18.813707028326714,-88.14432965457816,1
48.66611609600002,-18.499448652176213,-90.6373297186748,1
50.61276073984002,-18.351572850672188,-90.67736239822823,1
52.637271169433625,-17.750089682120194,-91.31798790052378,1
54.742762016210975,-17.71027694731691,-91.54755139525706,1
56.93247249685942,-17.455491380566325,-91.54003145160688,1
59.2097713967338,-17.148986925082745,-91.79103804540453,1
61.57816225260316,-16.89512709620623,-91.89176506720935,1
64.04128874270728,-16.43600566019105,-91.36315633643697,1
66.60294029241557,-16.148152121412302,-88.63281293914474,1
69.26705790411219,-15.613923085891496,-91.28351486418484,1
72.03774022027669,-15.191514632079505,-90.7931237161682,1
74.91924982908776,-14.937902058806566,-92.11683139379284,1
77.91601982225127,-14.596078264175874,-91.40039793448207,1
81.03266061514132,-14.443321430431808,-92.06789109828748,1
84.27396703974698,-13.999088249121524,-90.76084776088435,1
87.64492572133686,-13.740405920201852,-91.99055457186782,1
91.15072275019034,-13.384137642843736,-92.33690823592525,1
94.79675166019796,-12.908352521117017,-92.18078169688319,1
98.58862172660588,-12.695117278781563,-92.05144678105975,1
102.53216659567012,-12.385831033136183,-92.01796101093564,1
106.63345325949693,-12.037258863202345,-92.0602326218209,1
110.89879138987682,-11.600372858630411,-92.2106954385182,1
115.3347430454719,-11.20165860799687,-92.93770694832288,1
119.94813276729077,-10.877631113351166,-92.24321945512875,1
124.74605807798241,-10.567212089344777,-92.45356217214965,1
129.7359004011017,-10.325319432721502,-92.75244810593716,1
134.9253364171458,-9.946880943140929,-92.85146325413182,1
140.32234987383163,-9.604757721434034,-93.02814110594174,1
145.9352438687849,-9.400415408502715,-92.96780741248114,1
151.7726536235363,-9.073207999043381,-93.40196664013109,1
157.84355976847777,-8.726382178442828,-93.45531333847289,1
164.1573021592169,-8.271136191677718,-93.58691418473265,1
170.7235942455856,-7.957921138471014,-93.7198014708244,1
177.55253801540903,-7.6029568640103635,-93.42006497279417,1
184.6546395360254,-7.278874100684392,-93.94349194883071,1
192.04082511746643,-7.074951425899425,-94.35979790076891,1
199.72245812216508,-6.617040570351342,-93.99771694615411,1
207.71135644705168,-6.1182579809756525,-94.24167147624783,1
216.01981070493375,-5.995404155883915,-94.68313093701339,1
224.6606031331311,-5.692239544151487,-94.8312147945054,1
233.64702725845635,-5.360710163157751,-95.14090652822165,1
242.9929083487946,-4.97069554574781,-95.39596597856837,1
252.7126246827464,-4.664138353502945,-95.56077918540576,1
262.8211296700563,-4.360944187154829,-95.8998247809862,1
273.33397485685856,-4.068264192552852,-96.0009355228218,1
284.2673338511329,-3.7202815665719258,-96.26273212646583,1
295.6380272051782,-3.3840801795948487,-96.53976768533796,1
307.4635482933854,-2.9344784189933275,-96.57781112031464,1
319.7620902251208,-2.6804742281373923,-97.022938231485,1
332.55257383412567,-2.4932357309150897,-97.49749383053079,1
345.8546767874907,-2.0412180684664314,-97.78127617002063,1
359.6888638589903,-1.7204268320453162,-97.76532659753354,1
374.0764184133499,-1.4197678011834256,-98.0228119211222,1
389.0394751498839,-1.009374102121664,-98.29203165539157,1
404.6010541558793,-0.718627651138994,-98.81490418438034,1
420.7850963221145,-0.5165905425925933,-99.1767229144271,1
437.6165001749991,0.023534695450315703,-99.18291613672959,1
455.1211601819991,0.2755542423901709,-99.55744557859109,1
473.3260065892791,0.6270987241078559,-99.93933497464631,1
492.25904685285025,0.9417310505925686,-99.99265006828918,1
511.9494087269643,1.2238566016807535,-100.56692608840689,1
532.4273850760429,1.5648507574258024,-101.04238643012522,1
553.7244804790846,2.0282996441921,-101.19681596058206,1
575.873459698248,2.220738674931534,-101.89656093825347,1
598.908398086178,2.6556782123902933,-101.9909886950511,1
622.8647340096251,3.071801319414498,-101.95498246194214,1
647.77932337001,3.453671243313087,-102.32320820798407,1
673.6904963048105,3.6400038010654026,-103.23782063228006,1
700.638116157003,3.983745372081049,-103.4676700944932,1
728.6636408032831,4.183200911104012,-104.08093895306139,1
757.8101864354145,4.369999405004192,-105.12191635698724,1
788.1225938928311,4.84869687674865,-104.94179481780286,1
819.6474976485443,5.284711776122158,-105.2043872078298,1
852.4333975544862,5.5144986320465526,-105.96818839732398,1
886.5307334566656,5.812914508098523,-106.55964209438096,1
921.9919627949323,6.16683544611966,-107.06974467415407,1
958.8716413067297,6.517321736371567,-107.44029532297543,1
997.2265069589989,6.847858001305224,-108.15360714586095,1
1037.1155672373588,7.171782216386143,-108.57372872707278,1
1078.6001899268533,7.417106617647319,-109.37046206198974,1
1121.7441975239276,7.861431174943445,-109.68729398610913,1
1166.6139654248848,8.156663795491307,-110.43584752040144,1
1213.2785240418802,8.502228513456869,-111.10838584940277,1
1261.8096650035554,8.741940263437861,-112.24990461277477,1
1312.2820516036977,9.092005486128912,-112.8983589684274,1
1364.7733336678457,9.457498931503945,-113.60494826745537,1
1419.3642670145596,9.75938913390947,-114.25469025804162,1
1476.138837695142,10.040675679365059,-115.56392129755744,1
1535.1843912029478,10.485298139250215,-116.0356363815362,1
1596.5917668510658,10.710989451842849,-117.20082639249392,1
1660.4554375251084,11.143034633208694,-118.34529224024692,1
1726.8736550261128,11.467499261598576,-119.4279942896608,1
1795.9486012271575,11.83464770412097,-120.4730570832958,1
1867.786545276244,12.159308772450103,-121.7302044805659,1
1942.4980070872937,12.36996063690279,-123.91118312425334,1
2020.1979273707855,12.952936283411573,-124.14454361243514,1
2101.005844465617,13.2065345362902,-127.81421646287467,1
2185.046078244242,13.446084226066633,-128.52260816014964,1
2272.4479213740115,13.96423231258539,-129.56526628894215,1
2363.345838228972,14.066213397477156,-134.8703979130256,1
2457.879671758131,15.272466402708396,-130.0345306402748,1
2556.194858628456,15.71593453358354,-134.11114902878143,1
2658.4426529735942,16.24369001692046,-135.31451525347487,1
2764.780359092538,16.759045115729762,-137.7665161497951,1
2875.3715734562397,17.361661550863275,-140.85355058124466,1
2990.3864363944895,17.8725925917993,-142.87814032385205,1
3110.001893850269,18.53683688713776,-147.21366946503133,1
3234.4019696042797,19.08986199278387,-150.36318636933507,1
3363.7780483884508,19.8109836989772,-155.70712134208205,1
3498.329170323989,20.436335679707565,-161.231471855312,1
3638.2623371369486,21.13858651324912,-167.0664428519687,1
3783.7928306224267,21.793162184422513,-174.966449520095,1
3935.144543847324,22.334375241178428,175.86062971182406,1
4092.550325601217,22.729309839731194,165.88457631610345,1
4256.252338625266,22.719839573756857,154.48553757258446,1
4426.502432170277,22.605232690262262,143.18957052120862,1
4603.562529457088,21.992058284317483,132.32521308364807,1
4787.705030635372,21.04032756151712,122.10572971460367,1
4979.213231860787,20.04385182304887,113.7650211432931,1
5178.381761135219,18.71129478329016,106.5802686691441,1
5385.517031580628,17.995807221246157,103.4059809140964,1
5600.937712843854,16.61562008091432,97.84483614247691,1
5824.975221357608,15.841028920587258,96.29523694363473,1
6057.974230211912,14.808411644643835,93.053222772871,1
6300.293199420389,14.09742545646125,91.14343153222069,1
6552.304927397205,13.531835581964863,88.11932183941789,1
6814.397124493093,13.15918858211557,85.92707347388469,1
7086.973009472817,12.591811739468211,80.29115533287265,1
7370.45192985173,12.121071581905216,77.60932885870363,1
7665.2700070457995,11.322054183094993,71.07660004286961,1
7971.880807327631,10.43044843028042,66.77563945095594,1
8290.756039620737,9.673054779059038,65.06441185442304,1
8622.386281205567,8.734400201083485,59.291105366519695,1
8967.28173245379,7.917542775570228,56.91945046669808,1
9325.973001751941,7.001070578070621,55.117940094390704,1
9699.011921822019,6.104774223941839,52.18413347545889,1
